,V(m/s),alpha(deg),beta(deg),p(deg/s),q(deg/s),r(deg/s),phi(deg),theta(deg)
1.0,13.925598457814466,0.5949999294996863,0.0,0.0,2.3854910869664293e-08,0.0,0.0,1.0415000119362428
2.0,13.925596925419404,0.594999882761683,0.0,0.0,4.760435350975822e-08,0.0,0.0,1.0415000476746659
3.0,13.925595402729599,0.5949998596647145,0.0,0.0,7.12482831377779e-08,0.0,0.0,1.041500107109779
4.0,13.925593889660494,0.5949998600875404,0.0,0.0,9.478665083754582e-08,0.0,0.0,1.0415001901360448
5.0,13.925592386128189,0.594999883908952,0.0,0.0,1.1821940360704844e-07,0.0,0.0,1.0415002966478755
6.0,13.92559089204943,0.5949999310077683,0.0,0.0,1.4154648440595663e-07,0.0,0.0,1.041500426539628
7.0,13.925589407341604,0.5950000012628315,0.0,0.0,1.6476783220307658e-07,0.0,0.0,1.0415005797056
8.0,13.925587931922745,0.5950000945530034,0.0,0.0,1.8788338202357396e-07,0.0,0.0,1.0415007560400265
9.0,13.925586465711518,0.5950002107571616,0.0,0.0,2.1089306499664734e-07,0.0,0.0,1.041500955437075
10.0,13.925585008627223,0.595000349754195,0.0,0.0,2.3379680840214022e-07,0.0,0.0,1.0415011777908432
11.0,13.925583560589788,0.5950005114230008,0.0,0.0,2.565945357176287e-07,0.0,0.0,1.0415014229953532
12.0,13.925582121519762,0.5950006956424801,0.0,0.0,2.792861666654565e-07,0.0,0.0,1.0415016909445491
13.0,13.925580691338318,0.5950009022915347,0.0,0.0,3.018716172594498e-07,0.0,0.0,1.041501981532293
14.0,13.925579269967246,0.5950011312490626,0.0,0.0,3.2435079985151804e-07,0.0,0.0,1.0415022946523609
15.0,13.925577857328946,0.5950013823939555,0.0,0.0,3.4672362317811905e-07,0.0,0.0,1.0415026301984396
16.0,13.925576453346428,0.5950016556050943,0.0,0.0,3.689899924068919e-07,0.0,0.0,1.0415029880641227
17.0,13.925575057943307,0.595001950761346,0.0,0.0,3.9114980918270967e-07,0.0,0.0,1.0415033681429071
18.0,13.9255736710438,0.5950022677415602,0.0,0.0,4.1320297167407247e-07,0.0,0.0,1.0415037703281897
19.0,13.925572292572719,0.5950026064245656,0.0,0.0,4.3514937461923e-07,0.0,0.0,1.041504194513264
20.0,13.925570922455469,0.5950029666891665,0.0,0.0,4.5698890937202717e-07,0.0,0.0,1.0415046405913162
21.0,13.92556956061805,0.5950033484141399,0.0,0.0,4.78721463947738e-07,0.0,0.0,1.0415051084554225
22.0,13.925568206987041,0.5950037514782317,0.0,0.0,5.003469230687643e-07,0.0,0.0,1.0415055979985455
23.0,13.925566861489608,0.5950041757601537,0.0,0.0,5.218651682106562e-07,0.0,0.0,1.0415061091135307
24.0,13.925565524053498,0.5950046211385805,0.0,0.0,5.43276077647122e-07,0.0,0.0,1.0415066416931034
25.0,13.925564194607027,0.5950050874921462,0.0,0.0,5.645795264959852e-07,0.0,0.0,1.0415071956298658
26.0,13.925562873079087,0.5950055746994414,0.0,0.0,5.857753867641958e-07,0.0,0.0,1.0415077708162936
27.0,13.925561559399139,0.5950060826390099,0.0,0.0,6.068635273930123e-07,0.0,0.0,1.041508367144733
28.0,13.925560253497203,0.5950066111893463,0.0,0.0,6.278438143033578e-07,0.0,0.0,1.0415089845073973
29.0,13.925558955303867,0.5950071602288924,0.0,0.0,6.48716110440573e-07,0.0,0.0,1.0415096227963647
30.0,13.925557664750272,0.5950077296360348,0.0,0.0,6.694802758196199e-07,0.0,0.0,1.0415102819035746
31.0,13.925556381768114,0.5950083192891014,0.0,0.0,6.901361675695155e-07,0.0,0.0,1.0415109617208251
32.0,13.925555106289641,0.5950089290663593,0.0,0.0,7.106836399782795e-07,0.0,0.0,1.04151166213977
33.0,13.925553838247648,0.5950095588460117,0.0,0.0,7.311225445375522e-07,0.0,0.0,1.0415123830519157
34.0,13.925552577575472,0.5950102085061951,0.0,0.0,7.514527299868812e-07,0.0,0.0,1.0415131243486193
35.0,13.925551324206992,0.595010877924977,0.0,0.0,7.716740423581797e-07,0.0,0.0,1.0415138859210846
36.0,13.925550078076625,0.5950115669803525,0.0,0.0,7.917863250202008e-07,0.0,0.0,1.0415146676603608
37.0,13.92554883911932,0.5950122755502427,0.0,0.0,8.117894187223137e-07,0.0,0.0,1.0415154694573385
38.0,13.925547607270559,0.5950130035124916,0.0,0.0,8.316831616389746e-07,0.0,0.0,1.041516291202748
39.0,13.925546382466349,0.5950137507448635,0.0,0.0,8.514673894134791e-07,0.0,0.0,1.0415171327871566
40.0,13.925545164643221,0.5950145171250409,0.0,0.0,8.711419352020892e-07,0.0,0.0,1.041517994100966
41.0,13.925543953738229,0.595015302530622,0.0,0.0,8.907066297173818e-07,0.0,0.0,1.0415188750344098
42.0,13.925542749688942,0.595016106839118,0.0,0.0,9.101613012722328e-07,0.0,0.0,1.0415197754775511
43.0,13.925541552433446,0.5950169299279515,0.0,0.0,9.295057758231757e-07,0.0,0.0,1.04152069532028
44.0,13.925540361910338,0.5950177716744536,0.0,0.0,9.487398770144118e-07,0.0,0.0,1.0415216344523117
45.0,13.92553917805872,0.5950186319558619,0.0,0.0,9.678634262203626e-07,0.0,0.0,1.0415225927631835
46.0,13.925538000818205,0.5950195106493185,0.0,0.0,9.86876242589661e-07,0.0,0.0,1.0415235701422532
47.0,13.925536830128904,0.5950204076318675,0.0,0.0,1.005778143087795e-06,0.0,0.0,1.0415245664786967
48.0,13.925535665931424,0.5950213227804532,0.0,0.0,1.0245689425406142e-06,0.0,0.0,1.0415255816615057
49.0,13.925534508166875,0.5950222559719179,0.0,0.0,1.0432484536769952e-06,0.0,0.0,1.0415266155794856
50.0,13.925533356776853,0.5950232070830002,0.0,0.0,1.0618164871718115e-06,0.0,0.0,1.0415276681212537
51.0,13.92553221170345,0.5950241759903324,0.0,0.0,1.0802728516887586e-06,0.0,0.0,1.041528739175237
52.0,13.92553107288924,0.5950251625704396,0.0,0.0,1.098617353922832e-06,0.0,0.0,1.0415298286296697
53.0,13.925529940277285,0.5950261666997367,0.0,0.0,1.1168497986435185e-06,0.0,0.0,1.0415309363725922
54.0,13.925528813811123,0.5950271882545275,0.0,0.0,1.1349699887364476e-06,0.0,0.0,1.0415320622918487
55.0,13.925527693434775,0.5950282271110023,0.0,0.0,1.1529777252462477e-06,0.0,0.0,1.041533206275085
56.0,13.925526579092734,0.5950292831452366,0.0,0.0,1.1708728074187962e-06,0.0,0.0,1.0415343682097478
57.0,13.925525470729967,0.5950303562331891,0.0,0.0,1.1886550327433867e-06,0.0,0.0,1.041535547983081
58.0,13.92552436829191,0.5950314462507003,0.0,0.0,1.2063241969948227e-06,0.0,0.0,1.0415367454821263
59.0,13.925523271724465,0.5950325530734905,0.0,0.0,1.223880094275552e-06,0.0,0.0,1.0415379605937194
60.0,13.925522180973998,0.5950336765771588,0.0,0.0,1.2413225170569595e-06,0.0,0.0,1.04153919320449
61.0,13.925521095987335,0.5950348166371812,0.0,0.0,1.2586512562221743e-06,0.0,0.0,1.041540443200859
62.0,13.925520016711763,0.595035973128909,0.0,0.0,1.2758661011067989e-06,0.0,0.0,1.0415417104690377
63.0,13.925518943095021,0.5950371459275678,0.0,0.0,1.2929668395412045e-06,0.0,0.0,1.0415429948950257
64.0,13.925517875085303,0.595038334908256,0.0,0.0,1.3099532578917628e-06,0.0,0.0,1.04154429636461
65.0,13.925516812631251,0.5950395399459429,0.0,0.0,1.3268251411022184e-06,0.0,0.0,1.041545614763363
66.0,13.925515755681957,0.5950407609154683,0.0,0.0,1.3435822727351227e-06,0.0,0.0,1.0415469499766417
67.0,13.925514704186956,0.5950419976915403,0.0,0.0,1.3602244350128666e-06,0.0,0.0,1.0415483018895855
68.0,13.925513658096222,0.5950432501487349,0.0,0.0,1.3767514088592533e-06,0.0,0.0,1.0415496703871157
69.0,13.925512617360173,0.5950445181614943,0.0,0.0,1.3931629739398994e-06,0.0,0.0,1.0415510553539338
70.0,13.925511581929662,0.5950458016041258,0.0,0.0,1.4094589087036381e-06,0.0,0.0,1.0415524566745202
71.0,13.925510551755975,0.5950471003508009,0.0,0.0,1.4256389904233711e-06,0.0,0.0,1.0415538742331336
72.0,13.92550952679083,0.5950484142755542,0.0,0.0,1.4417029952365474e-06,0.0,0.0,1.041555307913809
73.0,13.925508506986372,0.5950497432522824,0.0,0.0,1.457650698185852e-06,0.0,0.0,1.0415567576003568
74.0,13.925507492295175,0.5950510871547431,0.0,0.0,1.4734818732597974e-06,0.0,0.0,1.0415582231763627
75.0,13.925506482670237,0.5950524458565539,0.0,0.0,1.489196293433287e-06,0.0,0.0,1.0415597045251852
76.0,13.925505478064974,0.595053819231192,0.0,0.0,1.5047937307078706e-06,0.0,0.0,1.0415612015299553
77.0,13.925504478433222,0.5950552071519928,0.0,0.0,1.5202739561520884e-06,0.0,0.0,1.041562714073576
78.0,13.925503483729234,0.595056609492149,0.0,0.0,1.535636739941372e-06,0.0,0.0,1.0415642420387203
79.0,13.925502493907675,0.5950580261247105,0.0,0.0,1.5508818513984542e-06,0.0,0.0,1.0415657853078317
80.0,13.925501508923624,0.5950594569225831,0.0,0.0,1.5660090590329765e-06,0.0,0.0,1.0415673437631219
81.0,13.925500528732565,0.595060901758528,0.0,0.0,1.581018130581772e-06,0.0,0.0,1.041568917286571
82.0,13.92549955329039,0.5950623605051609,0.0,0.0,1.5959088330483554e-06,0.0,0.0,1.0415705057599267
83.0,13.925498582553397,0.595063833034952,0.0,0.0,1.610680932742466e-06,0.0,0.0,1.041572109064703
84.0,13.925497616478282,0.5950653192202247,0.0,0.0,1.6253341953201505e-06,0.0,0.0,1.0415737270821799
85.0,13.92549665502214,0.5950668189331555,0.0,0.0,1.639868385822701e-06,0.0,0.0,1.041575359693403
86.0,13.925495698142468,0.5950683320457736,0.0,0.0,1.65428326871642e-06,0.0,0.0,1.0415770067791823
87.0,13.92549474579715,0.59506985842996,0.0,0.0,1.6685786079318652e-06,0.0,0.0,1.0415786682200925
88.0,13.925493797944469,0.5950713979574473,0.0,0.0,1.682754166902692e-06,0.0,0.0,1.0415803438964715
89.0,13.925492854543092,0.5950729504998199,0.0,0.0,1.6968097086051625e-06,0.0,0.0,1.0415820336884205
90.0,13.925491915552078,0.5950745159285125,0.0,0.0,1.7107449955968726e-06,0.0,0.0,1.0415837374758037
91.0,13.925490980930865,0.5950760941148108,0.0,0.0,1.7245597900557837e-06,0.0,0.0,1.0415854551382475
92.0,13.925490050639281,0.5950776849298508,0.0,0.0,1.7382538538190232e-06,0.0,0.0,1.0415871865551403
93.0,13.925489124637531,0.5950792882446186,0.0,0.0,1.7518269484212725e-06,0.0,0.0,1.0415889316056322
94.0,13.925488202886196,0.5950809039299506,0.0,0.0,1.7652788351338588e-06,0.0,0.0,1.0415906901686345
95.0,13.92548728534624,0.5950825318565327,0.0,0.0,1.7786092750031337e-06,0.0,0.0,1.04159246212282
96.0,13.925486371978991,0.5950841718949007,0.0,0.0,1.7918180288885696e-06,0.0,0.0,1.0415942473466224
97.0,13.925485462746158,0.5950858239154401,0.0,0.0,1.80490485750108e-06,0.0,0.0,1.041596045718236
98.0,13.925484557609815,0.5950874877883858,0.0,0.0,1.817869521441645e-06,0.0,0.0,1.041597857115616
99.0,13.925483656532403,0.5950891633838229,0.0,0.0,1.8307117812391438e-06,0.0,0.0,1.0415996814164776
100.0,13.925482759476731,0.5950908505716859,0.0,0.0,1.8434313973880767e-06,0.0,0.0,1.0416015184982972
101.0,13.925481866405965,0.595092549221759,0.0,0.0,1.8560281303872786e-06,0.0,0.0,1.0416033682383112
102.0,13.92548097728364,0.5950942592036766,0.0,0.0,1.868501740776514e-06,0.0,0.0,1.041605230513517
103.0,13.925480092073641,0.5950959803869231,0.0,0.0,1.8808519891753291e-06,0.0,0.0,1.0416071052006721
104.0,13.925479210740217,0.5950977126408332,0.0,0.0,1.8930786363199433e-06,0.0,0.0,1.041608992176295
105.0,13.92547833324797,0.5950994558345921,0.0,0.0,1.9051814431010361e-06,0.0,0.0,1.0416108913166646
106.0,13.925477459561849,0.5951012098372359,0.0,0.0,1.9171601706011776e-06,0.0,0.0,1.0416128024978213
107.0,13.92547658964716,0.5951029745176518,0.0,0.0,1.9290145801316967e-06,0.0,0.0,1.0416147255955663
108.0,13.925475723469551,0.5951047497445785,0.0,0.0,1.9407444332704462e-06,0.0,0.0,1.0416166604854626
109.0,13.925474860995024,0.5951065353866064,0.0,0.0,1.95234949189853e-06,0.0,0.0,1.0416186070428346
110.0,13.925474002189919,0.5951083313121784,0.0,0.0,1.9638295182372534e-06,0.0,0.0,1.041620565142769
111.0,13.925473147020918,0.5951101373895901,0.0,0.0,1.975184274885237e-06,0.0,0.0,1.0416225346601147
112.0,13.925472295455048,0.5951119534869902,0.0,0.0,1.9864135248548812e-06,0.0,0.0,1.0416245154694832
113.0,13.925471447459671,0.5951137794723813,0.0,0.0,1.997517031609453e-06,0.0,0.0,1.04162650744525
114.0,13.925470603002484,0.5951156152136204,0.0,0.0,2.008494559099272e-06,0.0,0.0,1.0416285104615535
115.0,13.925469762051522,0.5951174605784194,0.0,0.0,2.0193458717983336e-06,0.0,0.0,1.0416305243922965
116.0,13.925468924575148,0.5951193154343456,0.0,0.0,2.0300707347407504e-06,0.0,0.0,1.041632549111147
117.0,13.925468090542056,0.5951211796488228,0.0,0.0,2.04066891355657e-06,0.0,0.0,1.041634584491538
118.0,13.925467259921271,0.5951230530891317,0.0,0.0,2.051140174508617e-06,0.0,0.0,1.0416366304066682
119.0,13.925466432682144,0.5951249356224106,0.0,0.0,2.0614842845279813e-06,0.0,0.0,1.0416386867295033
120.0,13.92546560879435,0.5951268271156566,0.0,0.0,2.071701011250047e-06,0.0,0.0,1.041640753332776
121.0,13.925464788227883,0.5951287274357256,0.0,0.0,2.0817901230504353e-06,0.0,0.0,1.0416428300889875
122.0,13.925463970953063,0.5951306364493343,0.0,0.0,2.0917513890807406e-06,0.0,0.0,1.041644916870407
123.0,13.925463156940525,0.5951325540230599,0.0,0.0,2.1015845793039438e-06,0.0,0.0,1.0416470135490736
124.0,13.925462346161224,0.5951344800233419,0.0,0.0,2.1112894645301557e-06,0.0,0.0,1.0416491199967972
125.0,13.925461538586427,0.5951364143164827,0.0,0.0,2.1208658164517176e-06,0.0,0.0,1.0416512360851582
126.0,13.925460734187718,0.5951383567686485,0.0,0.0,2.130313407678636e-06,0.0,0.0,1.0416533616855097
127.0,13.925459932936988,0.5951403072458704,0.0,0.0,2.1396320117739586e-06,0.0,0.0,1.0416554966689777
128.0,13.92545913480644,0.5951422656140458,0.0,0.0,2.1488214032883087e-06,0.0,0.0,1.0416576409064624
129.0,13.925458339768586,0.595144231738939,0.0,0.0,2.157881357795291e-06,0.0,0.0,1.0416597942686388
130.0,13.925457547796242,0.5951462054861827,0.0,0.0,2.166811651926415e-06,0.0,0.0,1.041661956625958
131.0,13.925456758862527,0.5951481867212787,0.0,0.0,2.175612063405327e-06,0.0,0.0,1.0416641278486485
132.0,13.925455972940867,0.5951501753095995,0.0,0.0,2.1842823710828217e-06,0.0,0.0,1.041666307806717
133.0,13.925455190004984,0.5951521711163895,0.0,0.0,2.192822354971009e-06,0.0,0.0,1.0416684963699494
134.0,13.9254544100289,0.5951541740067662,0.0,0.0,2.2012317962783133e-06,0.0,0.0,1.0416706934079127
135.0,13.925453632986935,0.5951561838457213,0.0,0.0,2.209510477443059e-06,0.0,0.0,1.0416728987899553
136.0,13.925452858853703,0.5951582004981225,0.0,0.0,2.217658182168048e-06,0.0,0.0,1.0416751123852088
137.0,13.925452087604112,0.5951602238287144,0.0,0.0,2.2256746954542633e-06,0.0,0.0,1.041677334062589
138.0,13.925451319213364,0.5951622537021198,0.0,0.0,2.233559803635211e-06,0.0,0.0,1.0416795636907978
139.0,13.92545055365695,0.595164289982842,0.0,0.0,2.2413132944105926e-06,0.0,0.0,1.0416818011383238
140.0,13.925449790910646,0.5951663325352651,0.0,0.0,2.2489349568798114e-06,0.0,0.0,1.0416840462734438
141.0,13.925449030950519,0.5951683812236562,0.0,0.0,2.256424581575963e-06,0.0,0.0,1.0416862989642248
142.0,13.925448273752918,0.595170435912167,0.0,0.0,2.2637819604987576e-06,0.0,0.0,1.041688559078525
143.0,13.92544751929448,0.5951724964648348,0.0,0.0,2.2710068871482236e-06,0.0,0.0,1.041690826483995
144.0,13.925446767552117,0.5951745627455847,0.0,0.0,2.278099156557956e-06,0.0,0.0,1.04169310104808
145.0,13.925446018503028,0.5951766346182306,0.0,0.0,2.285058565328087e-06,0.0,0.0,1.0416953826380213
146.0,13.925445272124684,0.5951787119464775,0.0,0.0,2.2918849116584877e-06,0.0,0.0,1.0416976711208568
147.0,13.925444528394836,0.5951807945939229,0.0,0.0,2.2985779953813785e-06,0.0,0.0,1.0416999663634239
148.0,13.925443787291512,0.5951828824240583,0.0,0.0,2.3051376179943122e-06,0.0,0.0,1.0417022682323605
149.0,13.92544304879301,0.5951849753002711,0.0,0.0,2.3115635826926996e-06,0.0,0.0,1.041704576594107
150.0,13.9254423128779,0.5951870730858468,0.0,0.0,2.317855694402351e-06,0.0,0.0,1.0417068913149081
151.0,13.925441579525025,0.5951891756439701,0.0,0.0,2.324013759811803e-06,0.0,0.0,1.0417092122608138
152.0,13.925440848713492,0.5951912828377272,0.0,0.0,2.33003758740472e-06,0.0,0.0,1.041711539297682
153.0,13.925440120422682,0.5951933945301073,0.0,0.0,2.335926987491864e-06,0.0,0.0,1.0417138722911794
154.0,13.925439394632233,0.5951955105840052,0.0,0.0,2.34168177224351e-06,0.0,0.0,1.041716211106785
155.0,13.925438671322054,0.5951976308622225,0.0,0.0,2.347301755720758e-06,0.0,0.0,1.04171855560979
156.0,13.925437950472313,0.59519975522747,0.0,0.0,2.3527867539076782e-06,0.0,0.0,1.0417209056653014
157.0,13.92543723206344,0.5952018835423694,0.0,0.0,2.3581365847429966e-06,0.0,0.0,1.041723261138242
158.0,13.92543651607612,0.5952040156694555,0.0,0.0,2.363351068151692e-06,0.0,0.0,1.041725621893355
159.0,13.925435802491302,0.5952061514711782,0.0,0.0,2.3684300260758615e-06,0.0,0.0,1.0417279877952033
160.0,13.925435091290186,0.5952082908099048,0.0,0.0,2.3733732825067462e-06,0.0,0.0,1.0417303587081732
161.0,13.925434382454231,0.5952104335479217,0.0,0.0,2.3781806635151114e-06,0.0,0.0,1.0417327344964764
162.0,13.925433675965145,0.5952125795474369,0.0,0.0,2.3828519972830233e-06,0.0,0.0,1.0417351150241512
163.0,13.92543297180489,0.5952147286705821,0.0,0.0,2.3873871141342266e-06,0.0,0.0,1.0417375001550653
164.0,13.925432269955676,0.5952168807794147,0.0,0.0,2.3917858465649746e-06,0.0,0.0,1.041739889752918
165.0,13.925431570399965,0.5952190357359202,0.0,0.0,2.3960480292748695e-06,0.0,0.0,1.0417422836812418
166.0,13.925430873120462,0.5952211934020144,0.0,0.0,2.4001734991973074e-06,0.0,0.0,1.0417446818034055
167.0,13.925430178100118,0.5952233536395459,0.0,0.0,2.4041620955295875e-06,0.0,0.0,1.0417470839826157
168.0,13.925429485322132,0.5952255163102981,0.0,0.0,2.408013659763417e-06,0.0,0.0,1.0417494900819193
169.0,13.92542879476994,0.5952276812759917,0.0,0.0,2.4117280357149368e-06,0.0,0.0,1.041751899964206
170.0,13.925428106427226,0.5952298483982871,0.0,0.0,2.4153050695548604e-06,0.0,0.0,1.04175431349221
171.0,13.925427420277906,0.5952320175387867,0.0,0.0,2.418744609837891e-06,0.0,0.0,1.0417567305285138
172.0,13.92542673630614,0.5952341885590375,0.0,0.0,2.4220465075329316e-06,0.0,0.0,1.0417591509355488
173.0,13.92542605449632,0.5952363613205335,0.0,0.0,2.425210616052279e-06,0.0,0.0,1.041761574575599
174.0,13.925425374833077,0.5952385356847179,0.0,0.0,2.4282367912813073e-06,0.0,0.0,1.0417640013108032
175.0,13.925424697301276,0.595240711512986,0.0,0.0,2.431124891607433e-06,0.0,0.0,1.0417664310031567
176.0,13.925424021886013,0.5952428886666876,0.0,0.0,2.4338747779497408e-06,0.0,0.0,1.041768863514515
177.0,13.925423348572613,0.5952450670071296,0.0,0.0,2.4364863137877848e-06,0.0,0.0,1.0417712987065957
178.0,13.925422677346635,0.5952472463955787,0.0,0.0,2.438959365190439e-06,0.0,0.0,1.0417737364409811
179.0,13.925422008193863,0.5952494266932634,0.0,0.0,2.441293800844613e-06,0.0,0.0,1.041776176579121
180.0,13.925421341100309,0.5952516077613776,0.0,0.0,2.443489492083826e-06,0.0,0.0,1.0417786189823348
181.0,13.92542067605221,0.5952537894610828,0.0,0.0,2.4455463129170843e-06,0.0,0.0,1.041781063511815
182.0,13.92542001303603,0.5952559716535104,0.0,0.0,2.4474641400567103e-06,0.0,0.0,1.0417835100286295
183.0,13.92541935203845,0.5952581541997654,0.0,0.0,2.449242852946661e-06,0.0,0.0,1.0417859583937237
184.0,13.925418693046376,0.5952603369609281,0.0,0.0,2.4508823337910816e-06,0.0,0.0,1.0417884084679245
185.0,13.925418036046933,0.5952625197980576,0.0,0.0,2.4523824675814407e-06,0.0,0.0,1.041790860111942
186.0,13.925417381027465,0.5952647025721943,0.0,0.0,2.453743142124467e-06,0.0,0.0,1.0417933131863732
187.0,13.925416727975533,0.5952668851443631,0.0,0.0,2.4549642480704538e-06,0.0,0.0,1.0417957675517036
188.0,13.925416076878914,0.5952690673755756,0.0,0.0,2.456045678939594e-06,0.0,0.0,1.041798223068311
189.0,13.9254154277256,0.5952712491268337,0.0,0.0,2.456987331150532e-06,0.0,0.0,1.0418006795964685
190.0,13.925414780503793,0.5952734302591318,0.0,0.0,2.4577891040467442e-06,0.0,0.0,1.0418031369963467
191.0,13.925414135201912,0.5952756106334604,0.0,0.0,2.458450899923565e-06,0.0,0.0,1.0418055951280174
192.0,13.92541349180858,0.5952777901108085,0.0,0.0,2.4589726240555496e-06,0.0,0.0,1.0418080538514558
193.0,13.925412850312636,0.5952799685521672,0.0,0.0,2.459354184722709e-06,0.0,0.0,1.0418105130265443
194.0,13.925412210703122,0.5952821458185321,0.0,0.0,2.459595493237681e-06,0.0,0.0,1.0418129725130745
195.0,13.92541157296929,0.5952843217709065,0.0,0.0,2.4596964639717945e-06,0.0,0.0,1.0418154321707513
196.0,13.925410937100594,0.5952864962703048,0.0,0.0,2.459657014381248e-06,0.0,0.0,1.0418178918591956
197.0,13.925410303086693,0.5952886691777551,0.0,0.0,2.459477065033336e-06,0.0,0.0,1.041820351437947
198.0,13.92540967091745,0.5952908403543027,0.0,0.0,2.459156539632947e-06,0.0,0.0,1.041822810766467
